'Id: "" Comment: "" Operator: "Lab Manager" Anode: "Cu" Scantype: "TwoTheta" TimePerStep: "288" 
3.0000 0.000 0.198
3.0203 0.078 0.200
3.0406 0.093 0.200
3.0609 -0.139 0.196
3.0812 -0.106 0.196
3.1015 0.065 0.199
3.1218 0.237 0.202
3.1421 -0.119 0.195
3.1624 -0.111 0.195
3.1827 -0.071 0.196
3.2030 -0.084 0.195
3.2233 -0.079 0.195
3.2436 0.273 0.201
3.2639 -0.065 0.195
3.2842 0.061 0.197
3.3045 -0.093 0.194
3.3248 -0.022 0.195
3.3451 0.257 0.200
3.3654 0.193 0.199
3.3857 0.031 0.196
3.4060 0.134 0.197
3.4263 -0.041 0.194
3.4466 -0.054 0.193
3.4669 -0.097 0.192
3.4872 0.120 0.196
3.5075 0.084 0.195
3.5278 -0.119 0.191
3.5481 0.209 0.197
3.5684 0.191 0.196
3.5887 0.106 0.195
3.6090 -0.149 0.190
3.6293 0.183 0.196
3.6496 -0.027 0.192
3.6699 0.073 0.193
3.6902 -0.137 0.189
3.7105 -0.075 0.190
3.7308 0.054 0.192
3.7511 -0.131 0.189
3.7714 -0.065 0.190
3.7917 -0.030 0.191
3.8120 0.151 0.194
3.8323 -0.047 0.190
3.8526 0.081 0.192
3.8729 0.116 0.193
3.8932 0.123 0.193
3.9135 0.102 0.192
3.9338 -0.269 0.185
3.9541 -0.100 0.188
3.9744 0.273 0.195
3.9947 0.022 0.190
4.0150 0.070 0.191
4.0353 -0.039 0.189
4.0556 0.043 0.190
4.0759 0.080 0.191
4.0962 -0.102 0.188
4.1165 0.085 0.191
4.1368 0.059 0.190
4.1571 0.055 0.190
4.1774 0.075 0.190
4.1977 0.272 0.194
4.2180 -0.059 0.188
4.2383 -0.057 0.188
4.2586 -0.196 0.185
4.2789 0.153 0.191
4.2992 -0.090 0.187
4.3195 0.114 0.190
4.3398 0.085 0.190
4.3601 0.209 0.192
4.3804 -0.059 0.187
4.4007 0.149 0.190
4.4210 0.023 0.188
4.4413 -0.061 0.186
4.4616 0.182 0.191
4.4819 -0.110 0.185
4.5022 0.011 0.187
4.5225 -0.091 0.185
4.5428 0.117 0.189
4.5631 -0.019 0.186
4.5834 -0.075 0.185
4.6037 0.147 0.189
4.6240 0.001 0.186
4.6443 0.157 0.189
4.6646 0.112 0.188
4.6849 -0.017 0.186
4.7052 -0.201 0.182
4.7255 0.017 0.186
4.7458 0.075 0.187
4.7661 -0.019 0.185
4.7864 -0.019 0.185
4.8067 0.171 0.189
4.8270 -0.200 0.182
4.8473 -0.065 0.184
4.8676 -0.128 0.183
4.8879 0.104 0.187
4.9082 0.132 0.188
4.9285 0.239 0.190
4.9488 0.045 0.186
4.9691 -0.122 0.183
4.9894 0.041 0.186
5.0097 -0.154 0.182
5.0300 0.054 0.186
5.0503 0.162 0.188
5.0706 0.023 0.185
5.0909 0.332 0.191
5.1112 0.141 0.187
5.1315 0.405 0.192
5.1518 0.221 0.189
5.1721 0.215 0.188
5.1924 0.065 0.186
5.2127 0.159 0.187
5.2330 0.545 0.194
5.2533 0.250 0.189
5.2736 0.396 0.191
5.2939 0.549 0.194
5.3142 0.636 0.196
5.3345 0.613 0.195
5.3548 1.196 0.205
5.3751 1.228 0.206
5.3954 1.482 0.210
5.4157 2.260 0.222
5.4360 2.080 0.219
5.4563 1.643 0.212
5.4766 1.390 0.208
5.4969 1.328 0.207
5.5172 1.666 0.212
5.5375 2.337 0.223
5.5578 3.052 0.234
5.5781 3.105 0.235
5.5984 1.759 0.214
5.6187 0.232 0.187
5.6390 -0.003 0.183
5.6593 0.220 0.187
5.6796 0.033 0.183
5.6999 0.114 0.185
5.7202 -0.198 0.179
5.7405 -0.112 0.180
5.7608 0.099 0.184
5.7811 -0.203 0.178
5.8014 -0.041 0.181
5.8217 0.122 0.184
5.8420 0.222 0.186
5.8623 0.020 0.182
5.8826 -0.053 0.181
5.9029 0.016 0.182
5.9232 -0.109 0.180
5.9435 0.074 0.183
5.9638 0.317 0.188
5.9841 0.310 0.188
6.0044 0.372 0.189
6.0247 0.215 0.186
6.0450 0.187 0.185
6.0653 0.337 0.188
6.0856 0.329 0.188
6.1059 0.569 0.192
6.1262 0.767 0.195
6.1465 0.774 0.195
6.1668 1.093 0.201
6.1871 1.315 0.205
6.2074 1.541 0.208
6.2277 1.902 0.214
6.2480 2.406 0.222
6.2683 3.010 0.231
6.2886 3.350 0.236
6.3089 4.312 0.250
6.3292 5.708 0.269
6.3495 7.285 0.288
6.3698 7.695 0.293
6.3901 7.917 0.296
6.4104 8.244 0.300
6.4307 10.300 0.322
6.4510 12.720 0.348
6.4713 17.457 0.392
6.4916 23.614 0.443
6.5119 28.506 0.480
6.5322 24.312 0.449
6.5525 12.494 0.345
6.5728 5.505 0.266
6.5931 2.887 0.229
6.6134 2.679 0.225
6.6337 2.874 0.228
6.6540 2.399 0.221
6.6743 1.199 0.201
6.6946 0.508 0.189
6.7149 0.009 0.179
6.7352 0.058 0.180
6.7555 0.014 0.179
6.7758 0.060 0.180
6.7961 0.165 0.182
6.8164 0.124 0.181
6.8367 -0.062 0.177
6.8570 0.095 0.180
6.8773 0.082 0.180
6.8976 0.052 0.179
6.9179 0.181 0.182
6.9382 0.057 0.179
6.9585 0.329 0.184
6.9788 -0.045 0.177
6.9991 -0.085 0.176
7.0194 -0.119 0.175
7.0397 0.039 0.178
7.0600 0.050 0.179
7.0803 0.128 0.180
7.1006 -0.069 0.176
7.1209 0.259 0.182
7.1412 -0.312 0.171
7.1615 -0.124 0.175
7.1818 -0.010 0.177
7.2021 0.047 0.178
7.2224 -0.148 0.174
7.2427 0.090 0.179
7.2630 -0.085 0.175
7.2833 0.140 0.180
7.3036 0.062 0.178
7.3239 0.172 0.180
7.3442 -0.089 0.175
7.3645 0.160 0.180
7.3848 0.061 0.178
7.4051 -0.026 0.176
7.4254 0.257 0.182
7.4457 0.291 0.182
7.4660 0.492 0.186
7.4863 0.300 0.182
7.5066 0.636 0.188
7.5269 0.635 0.188
7.5472 0.940 0.194
7.5675 1.255 0.199
7.5878 1.633 0.206
7.6081 2.007 0.212
7.6284 2.284 0.216
7.6487 3.089 0.229
7.6690 4.099 0.244
7.6893 5.306 0.260
7.7096 7.653 0.290
7.7299 10.649 0.324
7.7502 12.676 0.345
7.7705 12.113 0.339
7.7908 7.502 0.288
7.8111 3.040 0.228
7.8314 0.876 0.192
7.8517 0.431 0.184
7.8720 0.104 0.177
7.8923 0.201 0.179
7.9126 -0.032 0.175
7.9329 0.170 0.178
7.9532 0.253 0.180
7.9735 0.062 0.176
7.9938 0.079 0.177
8.0141 -0.015 0.175
8.0344 -0.043 0.174
8.0547 -0.029 0.174
8.0750 0.165 0.178
8.0953 0.085 0.176
8.1156 -0.078 0.173
8.1359 -0.161 0.171
8.1562 0.110 0.177
8.1765 0.096 0.176
8.1968 0.023 0.175
8.2171 -0.126 0.172
8.2374 0.114 0.176
8.2577 -0.063 0.173
8.2780 0.017 0.174
8.2983 0.139 0.177
8.3186 -0.121 0.171
8.3389 -0.236 0.169
8.3592 0.274 0.179
8.3795 0.214 0.178
8.3998 0.082 0.175
8.4201 0.105 0.176
8.4404 0.108 0.176
8.4607 -0.145 0.170
8.4810 0.101 0.175
8.5013 0.274 0.179
8.5216 0.350 0.180
8.5419 0.489 0.183
8.5622 0.443 0.182
8.5825 0.690 0.186
8.6028 1.259 0.197
8.6231 1.418 0.199
8.6434 1.887 0.207
8.6637 2.182 0.212
8.6840 2.870 0.223
8.7043 4.126 0.242
8.7246 4.672 0.249
8.7449 6.276 0.271
8.7652 8.217 0.295
8.7855 11.054 0.326
8.8058 15.220 0.368
8.8261 22.089 0.428
8.8464 28.828 0.479
8.8667 31.492 0.498
8.8870 28.249 0.475
8.9073 19.735 0.408
8.9276 9.784 0.312
8.9479 4.239 0.243
8.9682 1.663 0.203
8.9885 0.841 0.188
9.0088 0.431 0.180
9.0291 0.130 0.174
9.0494 0.602 0.183
9.0697 0.151 0.174
9.0900 0.124 0.174
9.1103 0.097 0.173
9.1306 0.372 0.178
9.1509 0.227 0.175
9.1712 0.515 0.181
9.1915 0.158 0.174
9.2118 0.166 0.174
9.2321 0.052 0.172
9.2524 0.282 0.176
9.2727 0.019 0.171
9.2930 0.277 0.176
9.3133 0.406 0.178
9.3336 0.191 0.174
9.3539 -0.009 0.170
9.3742 0.103 0.172
9.3945 0.180 0.174
9.4148 -0.034 0.169
9.4351 -0.134 0.167
9.4554 0.032 0.170
9.4757 0.070 0.171
9.4960 0.073 0.171
9.5163 0.031 0.170
9.5366 0.002 0.170
9.5569 -0.057 0.169
9.5772 0.043 0.171
9.5975 0.084 0.172
9.6178 0.261 0.175
9.6381 0.094 0.172
9.6584 0.295 0.176
9.6787 0.038 0.171
9.6990 0.232 0.175
9.7193 0.260 0.175
9.7396 0.252 0.175
9.7599 0.231 0.175
9.7802 0.690 0.183
9.8005 0.617 0.182
9.8208 0.797 0.185
9.8411 1.109 0.191
9.8614 1.554 0.199
9.8817 2.269 0.211
9.9020 1.943 0.206
9.9223 1.158 0.192
9.9426 0.543 0.181
9.9629 0.061 0.171
9.9832 0.061 0.171
10.0035 -0.116 0.167
10.0238 0.218 0.174
10.0441 -0.060 0.169
10.0644 0.173 0.173
10.0847 0.184 0.174
10.1050 0.219 0.174
10.1253 0.007 0.170
10.1456 -0.076 0.168
10.1659 -0.068 0.168
10.1862 0.387 0.178
10.2065 -0.085 0.168
10.2268 0.162 0.173
10.2471 0.329 0.176
10.2674 0.229 0.174
10.2877 0.466 0.179
10.3080 0.515 0.180
10.3283 0.721 0.184
10.3486 1.044 0.190
10.3689 1.430 0.197
10.3892 1.844 0.204
10.4095 2.189 0.210
10.4298 1.398 0.196
10.4501 1.069 0.190
10.4704 0.632 0.182
10.4907 0.011 0.170
10.5110 -0.029 0.169
10.5313 0.169 0.173
10.5516 0.070 0.171
10.5719 0.022 0.170
10.5922 0.113 0.172
10.6125 0.357 0.177
10.6328 0.154 0.173
10.6531 0.616 0.182
10.6734 0.562 0.181
10.6937 0.893 0.187
10.7140 1.321 0.195
10.7343 2.007 0.206
10.7546 2.126 0.208
10.7749 3.165 0.225
10.7952 4.500 0.245
10.8155 6.609 0.273
10.8358 9.513 0.308
10.8561 12.914 0.344
10.8764 14.321 0.358
10.8967 13.066 0.345
10.9170 8.512 0.296
10.9373 4.117 0.239
10.9576 1.674 0.200
10.9779 0.527 0.179
10.9982 0.355 0.176
11.0185 0.440 0.178
11.0388 0.389 0.177
11.0591 0.457 0.178
11.0794 0.823 0.185
11.0997 0.804 0.185
11.1200 1.059 0.189
11.1403 1.349 0.195
11.1606 1.830 0.203
11.1809 2.120 0.208
11.2012 1.393 0.195
11.2215 1.180 0.191
11.2418 0.866 0.185
11.2621 1.232 0.192
11.2824 1.133 0.190
11.3027 0.510 0.179
11.3230 0.283 0.174
11.3433 0.216 0.173
11.3636 0.124 0.171
11.3839 0.168 0.172
11.4042 0.191 0.172
11.4245 0.315 0.175
11.4448 0.466 0.177
11.4651 0.684 0.182
11.4854 1.016 0.188
11.5057 1.307 0.193
11.5260 2.149 0.208
11.5463 2.565 0.214
11.5666 2.508 0.213
11.5869 3.004 0.221
11.6072 3.905 0.235
11.6275 4.595 0.245
11.6478 5.254 0.254
11.6681 4.580 0.245
11.6884 3.370 0.227
11.7087 1.939 0.204
11.7290 0.875 0.185
11.7493 0.409 0.176
11.7696 0.426 0.176
11.7899 0.200 0.171
11.8102 0.251 0.172
11.8305 0.181 0.171
11.8508 0.152 0.170
11.8711 0.686 0.181
11.8914 0.936 0.185
11.9117 1.019 0.187
11.9320 1.341 0.193
11.9523 1.507 0.196
11.9726 1.319 0.192
11.9929 0.145 0.170
12.0132 0.235 0.171
12.0335 0.380 0.174
12.0538 0.081 0.168
12.0741 0.112 0.169
12.0944 0.133 0.169
12.1147 0.066 0.168
12.1350 0.045 0.167
12.1553 -0.188 0.162
12.1756 0.128 0.169
12.1959 0.048 0.167
12.2162 0.236 0.171
12.2365 0.055 0.167
12.2568 0.204 0.170
12.2771 -0.216 0.161
12.2974 -0.046 0.165
12.3177 0.044 0.166
12.3380 -0.088 0.164
12.3583 -0.039 0.165
12.3786 0.208 0.170
12.3989 -0.056 0.164
12.4192 -0.115 0.163
12.4395 -0.081 0.163
12.4598 0.075 0.167
12.4801 0.224 0.170
12.5004 0.140 0.168
12.5207 0.014 0.166
12.5410 0.170 0.169
12.5613 0.152 0.168
12.5816 0.183 0.169
12.6019 0.113 0.168
12.6222 0.189 0.169
12.6425 0.185 0.169
12.6628 0.241 0.170
12.6831 0.050 0.166
12.7034 0.275 0.171
12.7237 0.615 0.178
12.7440 0.365 0.173
12.7643 0.809 0.181
12.7846 0.420 0.174
12.8049 0.184 0.169
12.8252 0.253 0.171
12.8455 0.115 0.168
12.8658 -0.073 0.164
12.8861 0.278 0.171
12.9064 0.295 0.171
12.9267 0.636 0.178
12.9470 0.611 0.178
12.9673 0.688 0.179
12.9876 1.324 0.191
13.0079 1.577 0.196
13.0282 2.369 0.209
13.0485 3.578 0.228
13.0688 4.401 0.241
13.0891 4.988 0.249
13.1094 4.141 0.237
13.1297 2.520 0.212
13.1500 1.284 0.190
13.1703 0.615 0.178
13.1906 0.372 0.173
13.2109 0.546 0.176
13.2312 0.710 0.179
13.2515 0.999 0.185
13.2718 1.562 0.195
13.2921 2.101 0.205
13.3124 2.355 0.209
13.3327 2.474 0.211
13.3530 2.228 0.207
13.3733 1.794 0.199
13.3936 1.753 0.199
13.4139 2.282 0.208
13.4342 2.411 0.210
13.4545 2.822 0.216
13.4748 3.094 0.221
13.4951 3.723 0.230
13.5154 4.491 0.242
13.5357 4.291 0.239
13.5560 4.045 0.235
13.5763 2.803 0.216
13.5966 1.735 0.198
13.6169 1.222 0.189
13.6372 0.907 0.183
13.6575 0.915 0.183
13.6778 1.243 0.189
13.6981 1.577 0.195
13.7184 1.787 0.199
13.7387 2.125 0.205
13.7590 2.119 0.205
13.7793 1.433 0.193
13.7996 1.126 0.187
13.8199 0.676 0.178
13.8402 0.111 0.167
13.8605 -0.026 0.164
13.8808 0.041 0.165
13.9011 -0.020 0.164
13.9214 -0.050 0.163
13.9417 0.056 0.166
13.9620 0.064 0.166
13.9823 0.011 0.165
14.0026 -0.120 0.162
14.0229 -0.009 0.164
14.0432 -0.048 0.163
14.0635 -0.114 0.162
14.0838 0.017 0.165
14.1041 0.071 0.166
14.1244 0.126 0.167
14.1447 0.087 0.167
14.1650 -0.028 0.164
14.1853 -0.165 0.161
14.2056 0.043 0.166
14.2259 -0.013 0.165
14.2462 -0.101 0.163
14.2665 0.100 0.167
14.2868 0.134 0.168
14.3071 0.210 0.170
14.3274 0.046 0.166
14.3477 -0.083 0.164
14.3680 0.115 0.168
14.3883 0.406 0.174
14.4086 0.145 0.169
14.4289 0.662 0.179
14.4492 0.877 0.183
14.4695 1.182 0.189
14.4898 1.710 0.199
14.5101 1.213 0.190
14.5304 0.754 0.181
14.5507 0.379 0.174
14.5710 0.264 0.172
14.5913 0.313 0.173
14.6116 0.563 0.178
14.6319 0.788 0.182
14.6522 1.333 0.193
14.6725 1.337 0.193
14.6928 2.115 0.206
14.7131 3.222 0.224
14.7334 4.608 0.245
14.7537 6.493 0.270
14.7740 7.261 0.280
14.7943 7.077 0.278
14.8146 5.959 0.263
14.8349 5.514 0.258
14.8552 6.563 0.271
14.8755 8.011 0.289
14.8958 8.258 0.292
14.9161 7.297 0.281
14.9364 6.905 0.276
14.9567 7.058 0.278
14.9770 8.232 0.292
14.9973 8.343 0.293
15.0176 8.316 0.293
15.0379 7.657 0.285
15.0582 6.275 0.268
15.0785 4.575 0.245
15.0988 3.256 0.226
15.1191 1.853 0.203
15.1394 0.993 0.188
15.1597 0.924 0.186
15.1800 0.359 0.176
15.2003 0.540 0.179
15.2206 0.819 0.185
15.2409 1.208 0.192
15.2612 1.952 0.205
15.2815 2.981 0.222
15.3018 3.877 0.235
15.3221 4.104 0.239
15.3424 3.567 0.231
15.3627 2.602 0.216
15.3830 1.787 0.202
15.4033 1.011 0.189
15.4236 0.689 0.183
15.4439 0.478 0.179
15.4642 0.271 0.175
15.4845 0.317 0.176
15.5048 0.658 0.182
15.5251 0.823 0.185
15.5454 1.536 0.198
15.5657 2.058 0.207
15.5860 1.892 0.205
15.6063 2.147 0.209
15.6266 2.076 0.208
15.6469 1.636 0.200
15.6672 1.387 0.196
15.6875 1.837 0.204
15.7078 2.550 0.216
15.7281 4.288 0.242
15.7484 5.556 0.260
15.7687 6.041 0.266
15.7890 4.705 0.248
15.8093 3.144 0.225
15.8296 1.445 0.197
15.8499 0.418 0.178
15.8702 0.180 0.174
15.8905 -0.189 0.166
15.9108 0.285 0.176
15.9311 0.286 0.176
15.9514 0.816 0.186
15.9717 1.328 0.195
15.9920 1.917 0.206
16.0123 3.523 0.231
16.0326 3.924 0.237
16.0529 4.190 0.241
16.0732 3.824 0.236
16.0935 2.492 0.215
16.1138 2.349 0.213
16.1341 2.823 0.221
16.1544 3.637 0.233
16.1747 4.275 0.242
16.1950 4.225 0.242
16.2153 3.429 0.230
16.2356 2.014 0.208
16.2559 1.183 0.193
16.2762 0.685 0.184
16.2965 0.649 0.183
16.3168 0.721 0.185
16.3371 1.175 0.193
16.3574 1.462 0.198
16.3777 2.169 0.210
16.3980 2.588 0.217
16.4183 3.032 0.224
16.4386 4.680 0.248
16.4589 5.453 0.259
16.4792 5.734 0.263
16.4995 5.497 0.260
16.5198 4.704 0.249
16.5401 3.602 0.233
16.5604 2.400 0.214
16.5807 1.882 0.206
16.6010 1.447 0.198
16.6213 0.808 0.187
16.6416 0.665 0.184
16.6619 0.254 0.176
16.6822 0.344 0.178
16.7025 0.173 0.175
16.7228 0.426 0.179
16.7431 0.582 0.182
16.7634 1.546 0.200
16.7837 2.081 0.209
16.8040 2.670 0.219
16.8243 3.219 0.227
16.8446 3.795 0.236
16.8649 4.534 0.247
16.8852 4.717 0.249
16.9055 4.682 0.249
16.9258 5.311 0.257
16.9461 5.783 0.264
16.9664 7.560 0.286
16.9867 9.275 0.306
17.0070 9.105 0.304
17.0273 8.007 0.291
17.0476 5.646 0.262
17.0679 4.292 0.243
17.0882 2.976 0.224
17.1085 2.476 0.216
17.1288 2.049 0.209
17.1491 1.823 0.205
17.1695 2.358 0.214
17.1898 3.209 0.227
17.2101 3.962 0.238
17.2304 3.844 0.237
17.2507 3.060 0.225
17.2710 1.675 0.202
17.2913 0.987 0.190
17.3116 0.623 0.183
17.3319 0.349 0.178
17.3522 0.877 0.188
17.3725 1.235 0.195
17.3928 2.204 0.211
17.4131 3.496 0.231
17.4334 3.886 0.237
17.4537 3.542 0.232
17.4740 2.442 0.215
17.4943 1.831 0.205
17.5146 1.395 0.197
17.5349 1.524 0.200
17.5552 2.455 0.215
17.5755 3.240 0.227
17.5958 3.282 0.228
17.6161 3.269 0.228
17.6364 3.062 0.225
17.6567 2.750 0.220
17.6770 2.883 0.222
17.6973 3.387 0.230
17.7176 3.811 0.236
17.7379 4.017 0.239
17.7582 3.730 0.235
17.7785 3.411 0.230
17.7988 2.721 0.219
17.8191 2.472 0.215
17.8394 2.872 0.222
17.8597 3.808 0.236
17.8800 4.579 0.247
17.9003 4.733 0.249
17.9206 4.307 0.243
17.9409 2.961 0.223
17.9612 1.935 0.206
17.9815 1.189 0.193
18.0018 1.357 0.196
18.0221 1.629 0.201
18.0424 1.801 0.204
18.0627 2.257 0.212
18.0830 2.255 0.211
18.1033 2.058 0.208
18.1236 1.647 0.201
18.1439 1.179 0.193
18.1642 0.799 0.186
18.1845 0.453 0.179
18.2048 0.743 0.185
18.2251 1.356 0.196
18.2454 1.881 0.205
18.2657 2.192 0.210
18.2860 3.024 0.224
18.3063 3.241 0.227
18.3266 2.735 0.219
18.3469 1.629 0.201
18.3672 0.996 0.189
18.3875 0.362 0.177
18.4078 0.072 0.171
18.4281 0.067 0.171
18.4484 -0.118 0.167
18.4687 -0.150 0.167
18.4890 0.162 0.173
18.5093 0.151 0.173
18.5296 -0.034 0.170
18.5499 0.153 0.173
18.5702 0.236 0.175
18.5905 0.573 0.182
18.6108 0.385 0.178
18.6311 0.239 0.175
18.6514 0.350 0.178
18.6717 0.561 0.182
18.6920 0.533 0.181
18.7123 1.279 0.195
18.7326 2.043 0.208
18.7529 3.126 0.226
18.7732 3.928 0.238
18.7935 4.352 0.244
18.8138 4.817 0.251
18.8341 4.056 0.240
18.8544 2.973 0.224
18.8747 1.883 0.206
18.8950 1.650 0.202
18.9153 0.942 0.190
18.9356 1.185 0.194
18.9559 1.373 0.198
18.9762 2.071 0.210
18.9965 2.540 0.217
19.0168 2.884 0.223
19.0371 2.714 0.220
19.0574 2.061 0.210
19.0777 1.624 0.202
19.0980 1.343 0.197
19.1183 1.437 0.199
19.1386 2.361 0.215
19.1589 3.279 0.229
19.1792 4.814 0.251
19.1995 5.516 0.261
19.2198 4.332 0.245
19.2401 3.093 0.226
19.2604 2.267 0.213
19.2807 1.049 0.193
19.3010 0.529 0.183
19.3213 0.359 0.180
19.3416 0.336 0.180
19.3619 0.340 0.180
19.3822 0.243 0.178
19.4025 0.435 0.182
19.4228 0.377 0.181
19.4431 -0.011 0.173
19.4634 0.156 0.176
19.4837 0.286 0.179
19.5040 0.158 0.177
19.5243 0.170 0.177
19.5446 0.039 0.174
19.5649 0.005 0.174
19.5852 0.152 0.177
19.6055 0.191 0.177
19.6258 0.178 0.177
19.6461 0.395 0.181
19.6664 0.938 0.192
19.6867 1.498 0.202
19.7070 2.416 0.217
19.7273 3.427 0.232
19.7476 4.668 0.250
19.7679 6.027 0.269
19.7882 6.108 0.270
19.8085 5.818 0.266
19.8288 5.187 0.258
19.8491 4.151 0.243
19.8694 3.218 0.230
19.8897 2.535 0.219
19.9100 2.422 0.217
19.9303 3.118 0.228
19.9506 4.304 0.246
19.9709 6.128 0.270
19.9912 7.109 0.282
20.0115 7.441 0.287
20.0318 7.297 0.285
20.0521 6.496 0.275
20.0724 5.359 0.260
20.0927 3.909 0.240
20.1130 2.873 0.225
20.1333 1.972 0.210
20.1536 1.738 0.206
20.1739 1.736 0.206
20.1942 1.658 0.205
20.2145 1.299 0.199
20.2348 0.992 0.194
20.2551 0.984 0.193
20.2754 0.815 0.190
20.2957 1.022 0.194
20.3160 0.865 0.191
20.3363 1.350 0.200
20.3566 2.307 0.216
20.3769 2.635 0.221
20.3972 3.401 0.233
20.4175 3.383 0.233
20.4378 3.388 0.233
20.4581 3.259 0.231
20.4784 3.094 0.228
20.4987 2.795 0.224
20.5190 2.905 0.226
20.5393 2.949 0.226
20.5596 3.566 0.235
20.5799 3.919 0.241
20.6002 3.220 0.230
20.6205 2.924 0.226
20.6408 2.826 0.224
20.6611 2.398 0.218
20.6814 2.275 0.216
20.7017 2.129 0.213
20.7220 1.548 0.204
20.7423 1.304 0.200
20.7626 1.154 0.197
20.7829 1.139 0.197
20.8032 1.618 0.205
20.8235 1.572 0.204
20.8438 1.901 0.210
20.8641 1.894 0.210
20.8844 2.251 0.215
20.9047 2.650 0.222
20.9250 2.847 0.225
20.9453 3.569 0.236
20.9656 4.141 0.244
20.9859 4.012 0.242
21.0062 3.776 0.239
21.0265 2.834 0.225
21.0468 1.737 0.207
21.0671 1.098 0.196
21.0874 0.573 0.187
21.1077 0.305 0.181
21.1280 0.260 0.181
21.1483 -0.271 0.170
21.1686 -0.105 0.173
21.1889 -0.122 0.173
21.2092 -0.012 0.175
21.2295 0.029 0.176
21.2498 0.035 0.176
21.2701 0.034 0.176
21.2904 0.054 0.177
21.3107 0.376 0.183
21.3310 0.226 0.180
21.3513 0.722 0.189
21.3716 1.370 0.201
21.3919 1.922 0.210
21.4122 2.005 0.212
21.4325 1.830 0.209
21.4528 1.583 0.205
21.4731 1.326 0.200
21.4934 0.850 0.192
21.5137 0.544 0.186
21.5340 0.342 0.182
21.5543 -0.138 0.173
21.5746 0.410 0.184
21.5949 0.410 0.184
21.6152 0.663 0.188
21.6355 0.573 0.187
21.6558 0.218 0.180
21.6761 0.805 0.191
21.6964 0.864 0.192
21.7167 1.197 0.198
21.7370 1.155 0.197
21.7573 1.446 0.202
21.7776 1.488 0.203
21.7979 1.922 0.210
21.8182 2.335 0.217
21.8385 2.728 0.223
21.8588 2.839 0.225
21.8791 2.939 0.227
21.8994 2.623 0.222
21.9197 2.492 0.220
21.9400 3.065 0.228
21.9603 3.117 0.229
21.9806 3.822 0.240
22.0009 4.038 0.243
22.0212 3.569 0.236
22.0415 3.142 0.230
22.0618 2.740 0.223
22.0821 2.205 0.215
22.1024 1.817 0.209
22.1227 1.335 0.200
22.1430 0.929 0.193
22.1633 0.776 0.190
22.1836 0.728 0.190
22.2039 1.073 0.196
22.2242 1.507 0.203
22.2445 1.768 0.208
22.2648 2.297 0.216
22.2851 3.019 0.228
22.3054 4.187 0.245
22.3257 5.250 0.259
22.3460 5.837 0.267
22.3663 5.890 0.268
22.3866 5.092 0.257
22.4069 4.218 0.245
22.4272 3.052 0.228
22.4475 2.255 0.216
22.4678 1.759 0.207
22.4881 1.152 0.197
22.5084 0.983 0.194
22.5287 1.026 0.195
22.5490 1.065 0.195
22.5693 0.920 0.193
22.5896 1.147 0.197
22.6099 1.297 0.199
22.6302 1.132 0.197
22.6505 1.730 0.207
22.6708 1.488 0.203
22.6911 1.785 0.208
22.7114 1.821 0.208
22.7317 1.489 0.203
22.7520 1.476 0.202
22.7723 1.630 0.205
22.7926 1.590 0.204
22.8129 1.289 0.199
22.8332 1.523 0.203
22.8535 2.038 0.212
22.8738 1.786 0.208
22.8941 1.857 0.209
22.9144 1.616 0.205
22.9347 1.131 0.196
22.9550 0.876 0.192
22.9753 0.937 0.193
22.9956 1.074 0.195
23.0159 1.197 0.197
23.0362 1.414 0.201
23.0565 1.666 0.205
23.0768 1.588 0.204
23.0971 1.957 0.210
23.1174 2.001 0.211
23.1377 1.881 0.209
23.1580 1.852 0.208
23.1783 1.777 0.207
23.1986 1.456 0.201
23.2189 1.799 0.207
23.2392 1.874 0.208
23.2595 1.813 0.207
23.2798 2.440 0.218
23.3001 2.317 0.216
23.3204 2.569 0.220
23.3407 2.679 0.221
23.3610 3.282 0.231
23.3813 4.409 0.247
23.4016 5.095 0.256
23.4219 5.761 0.265
23.4422 6.760 0.278
23.4625 6.283 0.272
23.4828 5.820 0.266
23.5031 4.878 0.253
23.5234 3.474 0.233
23.5437 2.268 0.214
23.5640 1.250 0.197
23.5843 0.738 0.188
23.6046 0.404 0.182
23.6249 0.132 0.176
23.6452 -0.053 0.172
23.6655 0.203 0.178
23.6858 0.067 0.175
23.7061 0.170 0.177
23.7264 0.371 0.181
23.7467 0.273 0.179
23.7670 0.543 0.184
23.7873 0.525 0.183
23.8076 0.938 0.191
23.8279 1.326 0.198
23.8482 2.402 0.216
23.8685 3.485 0.233
23.8888 4.883 0.253
23.9091 5.476 0.261
23.9294 4.941 0.253
23.9497 4.514 0.247
23.9700 4.006 0.240
23.9903 4.006 0.240
24.0106 4.363 0.245
24.0309 4.325 0.244
24.0512 3.904 0.238
24.0715 3.519 0.233
24.0918 2.661 0.219
24.1121 1.917 0.207
24.1324 1.414 0.199
24.1527 0.729 0.186
24.1730 0.438 0.181
24.1933 0.379 0.179
24.2136 0.750 0.186
24.2339 0.913 0.189
24.2542 0.979 0.190
24.2745 1.701 0.203
24.2948 2.139 0.210
24.3151 2.993 0.224
24.3354 3.354 0.230
24.3557 3.452 0.231
24.3760 3.570 0.233
24.3963 2.976 0.224
24.4166 2.001 0.208
24.4369 1.577 0.201
24.4572 1.283 0.195
24.4775 0.915 0.189
24.4978 1.849 0.205
24.5181 2.790 0.220
24.5384 4.249 0.242
24.5587 5.632 0.261
24.5790 6.003 0.266
24.5993 5.219 0.256
24.6196 4.136 0.240
24.6399 3.036 0.224
24.6602 1.825 0.204
24.6805 1.093 0.191
24.7008 0.399 0.178
24.7211 0.417 0.178
24.7414 -0.030 0.169
24.7617 -0.068 0.168
24.7820 0.093 0.172
24.8023 0.024 0.170
24.8226 0.153 0.173
24.8429 0.140 0.172
24.8632 0.172 0.173
24.8835 0.100 0.171
24.9038 0.171 0.173
24.9241 0.491 0.179
24.9444 0.544 0.180
24.9647 0.635 0.181
24.9850 0.588 0.180
25.0053 0.908 0.186
25.0256 0.941 0.187
25.0459 0.890 0.186
25.0662 1.002 0.188
25.0865 1.385 0.195
25.1068 2.042 0.206
25.1271 2.676 0.216
25.1474 3.052 0.222
25.1677 3.605 0.231
25.1880 3.763 0.233
25.2083 3.695 0.232
25.2286 3.213 0.225
25.2489 2.934 0.220
25.2692 2.352 0.211
25.2895 1.877 0.203
25.3098 1.542 0.197
25.3301 1.415 0.194
25.3504 1.267 0.192
25.3707 1.331 0.193
25.3910 1.298 0.192
25.4113 1.373 0.193
25.4316 0.986 0.186
25.4519 0.720 0.181
25.4722 0.590 0.178
25.4925 0.414 0.175
25.5128 0.177 0.170
25.5331 0.040 0.167
25.5534 -0.153 0.163
25.5737 -0.030 0.165
25.5940 -0.236 0.161
25.6143 0.028 0.166
25.6346 -0.025 0.165
25.6549 0.176 0.169
25.6752 0.110 0.168
25.6955 -0.081 0.164
25.7158 0.217 0.170
25.7361 0.335 0.173
25.7564 0.311 0.172
25.7767 0.783 0.181
25.7970 1.634 0.197
25.8173 1.755 0.199
25.8376 2.471 0.211
25.8579 2.356 0.209
25.8782 2.013 0.204
25.8985 1.801 0.200
25.9188 1.568 0.196
25.9391 0.669 0.179
25.9594 0.722 0.180
25.9797 0.187 0.170
26.0000 0.160 0.169
26.0203 0.122 0.168
26.0406 0.171 0.169
26.0609 -0.003 0.166
26.0812 -0.044 0.165
26.1015 -0.005 0.166
26.1218 0.228 0.170
26.1421 0.055 0.167
26.1624 0.444 0.175
26.1827 0.632 0.178
26.2030 0.834 0.182
26.2233 1.414 0.193
26.2436 1.988 0.203
26.2639 3.041 0.220
26.2842 4.149 0.237
26.3045 4.754 0.246
26.3248 5.539 0.257
26.3451 5.012 0.249
26.3654 4.437 0.241
26.3857 3.816 0.232
26.4060 2.994 0.219
26.4263 2.401 0.210
26.4466 1.884 0.201
26.4669 1.698 0.198
26.4872 1.622 0.197
26.5075 1.373 0.192
26.5278 0.965 0.185
26.5481 0.570 0.177
26.5684 0.613 0.178
26.5887 0.267 0.171
26.6090 0.018 0.166
26.6293 0.533 0.176
26.6496 0.551 0.176
26.6699 0.532 0.176
26.6902 0.783 0.181
26.7105 0.809 0.181
26.7308 1.063 0.186
26.7511 1.113 0.187
26.7714 0.729 0.180
26.7917 0.720 0.180
26.8120 0.715 0.179
26.8323 0.661 0.178
26.8526 0.752 0.180
26.8729 0.775 0.180
26.8932 0.578 0.177
26.9135 0.580 0.177
26.9338 0.689 0.179
26.9541 0.698 0.179
26.9744 0.713 0.179
26.9947 0.798 0.181
27.0150 1.140 0.187
27.0353 1.399 0.192
27.0556 1.165 0.188
27.0759 1.184 0.188
27.0962 1.109 0.186
27.1165 0.771 0.180
27.1368 0.974 0.184
27.1571 0.865 0.182
27.1774 1.075 0.186
27.1977 1.292 0.190
27.2180 1.218 0.188
27.2383 1.390 0.191
27.2586 1.396 0.191
27.2789 1.638 0.196
27.2992 1.251 0.189
27.3195 1.572 0.195
27.3398 1.505 0.193
27.3601 1.236 0.188
27.3804 1.346 0.190
27.4007 1.460 0.192
27.4210 1.125 0.186
27.4413 1.145 0.186
27.4616 1.047 0.185
27.4819 0.907 0.182
27.5022 0.610 0.176
27.5225 0.616 0.176
27.5428 0.074 0.165
27.5631 0.069 0.165
27.5834 0.197 0.168
27.6037 0.237 0.168
27.6240 0.341 0.170
27.6443 0.343 0.170
27.6646 0.183 0.167
27.6849 0.144 0.166
27.7052 -0.055 0.162
27.7255 0.115 0.165
27.7458 -0.206 0.159
27.7661 -0.054 0.162
27.7864 -0.040 0.162
27.8067 0.039 0.164
27.8270 0.108 0.165
27.8473 0.260 0.168
27.8676 0.527 0.173
27.8879 0.752 0.178
27.9082 0.807 0.179
27.9285 1.091 0.184
27.9488 0.660 0.176
27.9691 1.052 0.183
27.9894 0.948 0.181
28.0097 0.743 0.177
28.0300 0.690 0.176
28.0503 0.562 0.174
28.0706 0.613 0.175
28.0909 0.547 0.173
28.1112 0.620 0.175
28.1315 0.599 0.174
28.1518 0.686 0.176
28.1721 0.758 0.177
28.1924 0.817 0.178
28.2127 1.369 0.189
28.2330 1.185 0.185
28.2533 1.744 0.195
28.2736 1.533 0.191
28.2939 1.366 0.188
28.3142 1.238 0.186
28.3345 0.974 0.181
28.3548 1.057 0.182
28.3751 0.790 0.177
28.3954 0.672 0.175
28.4157 1.075 0.182
28.4360 0.951 0.180
28.4563 1.139 0.183
28.4766 0.833 0.178
28.4969 0.858 0.178
28.5172 0.799 0.177
28.5375 0.921 0.179
28.5578 0.727 0.175
28.5781 0.676 0.174
28.5984 0.339 0.167
28.6187 0.180 0.164
28.6390 0.184 0.164
28.6593 0.032 0.160
28.6796 0.241 0.165
28.6999 -0.112 0.157
28.7202 -0.070 0.158
28.7405 -0.111 0.157
28.7608 0.073 0.161
28.7811 -0.086 0.157
28.8014 0.241 0.164
28.8217 0.241 0.164
28.8420 0.162 0.162
28.8623 -0.011 0.159
28.8826 0.145 0.162
28.9029 0.000 0.159
28.9232 0.077 0.160
28.9435 0.272 0.164
28.9638 0.169 0.162
28.9841 0.242 0.163
29.0044 0.212 0.163
29.0247 0.125 0.161
29.0450 0.786 0.174
29.0653 0.696 0.172
29.0856 0.846 0.175
29.1059 1.031 0.179
29.1262 1.414 0.186
29.1465 1.578 0.189
29.1668 1.402 0.186
29.1871 1.535 0.188
29.2074 1.585 0.189
29.2277 1.502 0.187
29.2480 1.725 0.191
29.2683 1.428 0.186
29.2886 1.294 0.183
29.3089 1.211 0.182
29.3292 0.792 0.173
29.3495 0.717 0.172
29.3698 0.465 0.166
29.3901 0.431 0.166
29.4104 0.148 0.159
29.4307 0.198 0.160
29.4510 0.057 0.157
29.4713 -0.108 0.153
29.4916 -0.071 0.154
29.5119 -0.023 0.155
29.5322 -0.041 0.155
29.5525 0.177 0.159
29.5728 0.187 0.160
29.5931 0.259 0.161
29.6134 0.335 0.163
29.6337 0.206 0.160
29.6540 0.306 0.162
29.6743 0.000 0.155
29.6946 0.125 0.158
29.7149 0.357 0.163
29.7352 0.058 0.156
29.7555 0.113 0.157
29.7758 0.144 0.158
29.7961 0.151 0.158
29.8164 0.137 0.158
29.8367 0.185 0.159
29.8570 0.223 0.159
29.8773 0.057 0.156
29.8976 0.265 0.160
29.9179 0.230 0.159
29.9382 0.185 0.158
29.9585 0.396 0.163
29.9788 0.449 0.164
29.9991 0.452 0.164
30.0194 0.331 0.161
30.0397 0.386 0.162
30.0600 0.352 0.162
30.0803 0.119 0.156
30.1006 0.293 0.160
30.1209 0.199 0.158
30.1412 0.206 0.158
30.1615 0.137 0.156
30.1818 0.270 0.159
30.2021 0.263 0.159
30.2224 0.249 0.159
30.2427 0.482 0.164
30.2630 0.358 0.161
30.2833 0.501 0.164
30.3036 0.584 0.166
30.3239 0.554 0.165
30.3442 0.530 0.164
30.3645 0.509 0.164
30.3848 0.288 0.159
30.4051 0.281 0.159
30.4254 0.567 0.165
30.4457 0.526 0.164
30.4660 0.527 0.164
30.4863 0.534 0.164
30.5066 0.403 0.161
30.5269 0.654 0.166
30.5472 0.540 0.164
30.5675 0.673 0.166
30.5878 0.399 0.160
30.6081 0.674 0.166
30.6284 0.464 0.162
30.6487 0.513 0.162
30.6690 0.667 0.166
30.6893 0.623 0.165
30.7096 0.665 0.165
30.7299 1.014 0.172
30.7502 0.768 0.167
30.7705 1.113 0.174
30.7908 1.132 0.175
30.8111 1.188 0.176
30.8314 1.308 0.178
30.8517 1.417 0.180
30.8720 1.321 0.178
30.8923 1.374 0.179
30.9126 1.632 0.184
30.9329 1.651 0.184
30.9532 1.694 0.185
30.9735 1.911 0.189
30.9938 1.912 0.189
31.0141 2.157 0.193
31.0344 1.999 0.190
31.0547 1.743 0.185
31.0750 1.776 0.186
31.0953 1.482 0.180
31.1156 1.001 0.170
31.1359 0.833 0.167
31.1562 0.581 0.161
31.1765 0.440 0.158
31.1968 0.275 0.154
31.2171 -0.195 0.143
31.2374 -0.040 0.147
31.2577 0.128 0.151
31.2780 -0.113 0.145
31.2983 0.101 0.150
31.3186 -0.023 0.147
31.3389 -0.215 0.142
31.3592 0.217 0.152
31.3795 0.129 0.150
31.3998 0.558 0.159
31.4201 0.831 0.165
31.4404 1.184 0.172
31.4607 1.488 0.178
31.4810 1.719 0.183
31.5013 2.006 0.188
31.5216 2.071 0.189
31.5419 2.028 0.188
31.5622 1.968 0.187
31.5825 1.776 0.183
31.6028 1.507 0.178
31.6231 1.357 0.175
31.6434 1.210 0.172
31.6637 1.160 0.171
31.6840 0.760 0.162
31.7043 0.842 0.164
31.7246 0.709 0.161
31.7449 0.555 0.157
31.7652 0.700 0.160
31.7855 1.012 0.167
31.8058 1.299 0.173
31.8261 1.066 0.168
31.8464 1.114 0.169
31.8667 1.314 0.172
31.8870 0.824 0.162
31.9073 0.816 0.162
31.9276 0.534 0.156
31.9479 0.214 0.148
31.9682 0.238 0.149
31.9885 0.005 0.143
32.0088 -0.006 0.142
32.0291 -0.139 0.139
32.0494 0.000 0.142
32.0697 0.060 0.144
32.0900 -0.277 0.136
32.1103 0.092 0.145
32.1306 0.079 0.145
32.1509 0.055 0.144
32.1712 0.323 0.151
32.1915 0.125 0.146
32.2118 0.230 0.149
32.2321 0.550 0.156
32.2524 0.582 0.157
32.2727 0.565 0.156
32.2930 0.413 0.153
32.3133 0.588 0.157
32.3336 0.345 0.152
32.3539 0.249 0.149
32.3742 0.302 0.151
32.3945 0.282 0.150
32.4148 0.154 0.147
32.4351 0.534 0.156
32.4554 0.451 0.154
32.4757 0.463 0.155
32.4960 0.686 0.160
32.5163 0.909 0.164
32.5366 0.789 0.162
32.5569 0.752 0.161
32.5772 0.985 0.166
32.5975 0.987 0.166
32.6178 0.845 0.163
32.6381 0.628 0.159
32.6584 0.761 0.162
32.6787 0.582 0.158
32.6990 0.732 0.161
32.7193 0.706 0.161
32.7396 0.756 0.162
32.7599 0.931 0.166
32.7802 0.922 0.165
32.8005 0.864 0.164
32.8208 0.987 0.167
32.8411 1.159 0.170
32.8614 1.178 0.171
32.8817 1.152 0.170
32.9020 1.122 0.170
32.9223 1.013 0.168
32.9426 1.104 0.169
32.9629 1.155 0.171
32.9832 1.202 0.172
33.0035 1.242 0.172
33.0238 1.292 0.173
33.0441 1.078 0.169
33.0644 1.469 0.177
33.0847 1.356 0.175
33.1050 1.237 0.172
33.1253 1.621 0.180
33.1456 1.588 0.179
33.1659 1.684 0.181
33.1862 1.665 0.181
33.2065 1.434 0.177
33.2268 1.158 0.171
33.2471 1.098 0.170
33.2674 0.701 0.162
33.2877 0.581 0.159
33.3080 0.504 0.157
33.3283 0.242 0.151
33.3486 0.043 0.147
33.3689 -0.285 0.139
33.3892 0.228 0.151
33.4095 0.074 0.148
33.4298 0.090 0.148
33.4501 0.221 0.151
33.4704 0.296 0.153
33.4907 0.552 0.159
33.5110 0.572 0.159
33.5313 0.998 0.168
33.5516 1.053 0.169
33.5719 1.048 0.169
33.5922 1.172 0.172
33.6125 1.338 0.175
33.6328 1.275 0.174
33.6531 1.739 0.183
33.6734 1.666 0.181
33.6937 1.981 0.187
33.7140 1.939 0.187
33.7343 1.945 0.187
33.7546 1.826 0.185
33.7749 2.013 0.188
33.7952 1.679 0.182
33.8155 1.678 0.182
33.8358 1.758 0.183
33.8561 1.889 0.186
33.8764 1.736 0.183
33.8967 1.715 0.183
33.9170 1.634 0.181
33.9373 1.999 0.188
33.9576 1.557 0.180
33.9779 1.821 0.185
33.9982 1.477 0.178
34.0185 1.372 0.176
34.0388 1.264 0.174
34.0591 1.087 0.170
34.0794 0.861 0.166
34.0997 0.986 0.168
34.1200 1.076 0.170
34.1403 1.354 0.176
34.1606 1.309 0.175
34.1809 1.333 0.175
34.2012 1.416 0.177
34.2215 1.308 0.175
34.2418 1.482 0.178
34.2621 1.552 0.179
34.2824 1.316 0.175
34.3027 1.312 0.175
34.3230 1.132 0.171
34.3433 0.910 0.167
34.3636 0.410 0.156
34.3839 0.216 0.151
34.4042 0.362 0.155
34.4245 0.057 0.148
34.4448 0.019 0.147
34.4651 -0.130 0.143
34.4854 -0.016 0.146
34.5057 -0.082 0.144
34.5260 -0.030 0.146
34.5463 -0.124 0.143
34.5666 0.230 0.152
34.5869 0.292 0.153
34.6072 0.337 0.154
34.6275 0.601 0.160
34.6478 0.899 0.166
34.6681 1.038 0.169
34.6884 0.955 0.168
34.7087 1.476 0.178
34.7290 1.229 0.173
34.7493 1.070 0.170
34.7696 0.903 0.166
34.7899 1.091 0.170
34.8102 0.990 0.168
34.8305 1.365 0.176
34.8508 1.497 0.178
34.8711 1.498 0.178
34.8914 1.578 0.180
34.9117 1.304 0.175
34.9320 1.016 0.169
34.9523 0.801 0.164
34.9726 0.722 0.163
34.9929 0.698 0.162
35.0132 0.448 0.157
35.0335 0.039 0.147
35.0538 0.137 0.150
35.0741 -0.266 0.140
35.0944 -0.029 0.146
35.1147 0.069 0.148
35.1350 0.122 0.149
35.1553 0.289 0.153
35.1756 0.401 0.155
35.1959 0.453 0.157
35.2162 0.583 0.159
35.2365 0.660 0.161
35.2568 0.532 0.158
35.2771 0.644 0.161
35.2974 0.673 0.161
35.3177 0.708 0.162
35.3380 0.549 0.159
35.3583 0.516 0.158
35.3786 0.718 0.162
35.3989 0.952 0.167
35.4192 0.862 0.165
35.4395 1.273 0.174
35.4598 1.174 0.172
35.4801 0.966 0.167
35.5004 0.763 0.163
35.5207 0.910 0.166
35.5410 0.692 0.161
35.5613 0.624 0.160
35.5816 0.986 0.168
35.6019 1.057 0.169
35.6222 1.034 0.169
35.6425 1.452 0.177
35.6628 1.627 0.180
35.6831 1.885 0.185
35.7034 2.085 0.189
35.7237 1.968 0.187
35.7440 2.067 0.188
35.7643 1.968 0.187
35.7846 2.056 0.188
35.8049 2.280 0.192
35.8252 1.931 0.186
35.8455 2.096 0.189
35.8658 2.052 0.188
35.8861 1.793 0.183
35.9064 2.226 0.191
35.9267 2.311 0.193
35.9470 2.510 0.196
35.9673 2.557 0.197
35.9876 2.591 0.198
36.0079 2.554 0.197
36.0282 2.150 0.190
36.0485 2.166 0.190
36.0688 2.126 0.189
36.0891 1.861 0.184
36.1094 1.675 0.180
36.1297 1.587 0.179
36.1500 1.256 0.172
36.1703 0.980 0.166
36.1906 0.923 0.165
36.2109 0.630 0.159
36.2312 0.594 0.158
36.2515 0.766 0.162
36.2718 0.842 0.163
36.2921 0.993 0.166
36.3124 1.412 0.175
36.3327 1.453 0.176
36.3530 1.774 0.182
36.3733 1.700 0.180
36.3936 2.015 0.186
36.4139 2.035 0.187
36.4342 1.673 0.180
36.4545 2.009 0.186
36.4748 1.935 0.185
36.4951 1.441 0.175
36.5154 1.478 0.176
36.5357 1.669 0.179
36.5560 1.241 0.171
36.5763 1.163 0.169
36.5966 0.979 0.165
36.6169 1.054 0.167
36.6372 1.102 0.168
36.6575 1.390 0.174
36.6778 1.469 0.175
36.6981 1.267 0.171
36.7184 1.648 0.179
36.7387 1.183 0.169
36.7590 0.946 0.164
36.7793 1.008 0.165
36.7996 0.893 0.163
36.8199 0.361 0.151
36.8402 0.423 0.152
36.8605 0.364 0.151
36.8808 0.096 0.145
36.9011 0.037 0.143
36.9214 -0.134 0.139
36.9417 -0.038 0.141
36.9620 0.171 0.146
36.9823 0.277 0.149
37.0026 0.327 0.150
37.0229 0.311 0.150
37.0432 0.212 0.148
37.0635 0.415 0.152
37.0838 0.622 0.157
37.1041 0.526 0.155
37.1244 0.545 0.155
37.1447 0.304 0.150
37.1650 0.417 0.153
37.1853 0.637 0.158
37.2056 0.604 0.157
37.2259 0.568 0.156
37.2462 0.483 0.154
37.2665 0.554 0.156
37.2868 0.532 0.155
37.3071 0.555 0.156
37.3274 0.522 0.155
37.3477 0.725 0.160
37.3680 0.814 0.162
37.3883 1.289 0.172
37.4086 1.471 0.175
37.4289 1.574 0.177
37.4492 1.601 0.178
37.4695 1.558 0.177
37.4898 1.511 0.176
37.5101 1.458 0.175
37.5304 1.148 0.169
37.5507 1.223 0.170
37.5710 1.013 0.166
37.5913 0.988 0.166
37.6116 0.838 0.162
37.6319 0.854 0.163
37.6522 0.547 0.156
37.6725 0.692 0.159
37.6928 0.622 0.158
37.7131 0.576 0.157
37.7334 0.613 0.158
37.7537 0.737 0.160
37.7740 1.104 0.168
37.7943 1.097 0.168
37.8146 0.926 0.165
37.8349 1.164 0.170
37.8552 1.084 0.168
37.8755 0.885 0.164
37.8958 1.138 0.169
37.9161 0.915 0.164
37.9364 0.921 0.165
37.9567 0.671 0.159
37.9770 0.705 0.160
37.9973 0.566 0.157
38.0176 0.565 0.157
38.0379 0.224 0.149
38.0582 0.203 0.149
38.0785 0.116 0.147
38.0988 0.043 0.145
38.1191 0.174 0.148
38.1394 0.288 0.151
38.1597 0.017 0.144
38.1800 0.017 0.144
38.2003 0.010 0.144
38.2206 -0.011 0.144
38.2409 0.350 0.152
38.2612 0.377 0.153
38.2815 0.384 0.153
38.3018 0.554 0.157
38.3221 0.485 0.155
38.3424 0.686 0.160
38.3627 0.596 0.158
38.3830 0.877 0.164
38.4033 1.106 0.169
38.4236 1.221 0.171
38.4439 1.190 0.170
38.4642 0.829 0.163
38.4845 0.888 0.164
38.5048 0.697 0.160
38.5251 1.038 0.167
38.5454 0.732 0.161
38.5657 0.490 0.155
38.5860 0.539 0.156
38.6063 0.372 0.153
38.6266 0.282 0.151
38.6469 0.474 0.155
38.6672 0.426 0.154
38.6875 0.502 0.156
38.7078 0.708 0.160
38.7281 0.705 0.160
38.7484 0.886 0.164
38.7687 0.626 0.158
38.7890 0.884 0.164
38.8093 0.895 0.164
38.8296 0.802 0.162
38.8499 0.840 0.163
38.8702 0.692 0.160
38.8905 0.342 0.152
38.9108 0.277 0.150
38.9311 0.357 0.152
38.9514 0.282 0.150
38.9717 0.071 0.145
38.9920 -0.074 0.142
39.0123 0.271 0.150
39.0326 0.018 0.144
39.0529 -0.116 0.141
39.0732 -0.016 0.143
39.0935 0.025 0.144
39.1138 0.014 0.144
39.1341 0.257 0.150
39.1544 0.173 0.148
39.1747 0.297 0.151
39.1950 0.200 0.148
39.2153 0.199 0.148
39.2356 0.140 0.147
39.2559 0.393 0.153
39.2762 0.483 0.155
39.2965 0.365 0.152
39.3168 0.448 0.154
39.3371 0.514 0.156
39.3574 0.552 0.156
39.3777 0.816 0.162
39.3980 1.013 0.166
39.4183 1.038 0.167
39.4386 1.055 0.167
39.4589 0.989 0.166
39.4792 1.024 0.167
39.4995 0.795 0.162
39.5198 0.961 0.165
39.5401 0.958 0.165
39.5604 0.798 0.162
39.5807 0.747 0.161
39.6010 0.788 0.162
39.6213 1.073 0.168
39.6416 1.084 0.168
39.6619 1.011 0.166
39.6822 1.067 0.167
39.7025 0.904 0.164
39.7228 0.714 0.160
39.7431 0.867 0.163
39.7634 0.829 0.162
39.7837 0.753 0.161
39.8040 0.813 0.162
39.8243 0.956 0.165
39.8446 1.015 0.166
39.8649 1.085 0.168
39.8852 0.902 0.164
39.9055 0.930 0.164
39.9258 1.045 0.167
39.9461 0.921 0.164
39.9664 1.113 0.168
39.9867 0.999 0.166
40.0070 0.652 0.158
40.0273 0.396 0.153
40.0476 0.289 0.150
40.0679 0.197 0.148
40.0882 0.107 0.146
40.1085 0.056 0.145
40.1288 0.137 0.147
40.1491 -0.077 0.141
40.1694 0.114 0.146
40.1897 0.268 0.150
40.2100 0.130 0.146
40.2303 0.215 0.148
40.2506 0.397 0.152
40.2709 0.589 0.157
40.2912 0.614 0.157
40.3115 0.768 0.161
40.3318 0.797 0.161
40.3521 0.805 0.161
40.3724 0.546 0.156
40.3927 0.752 0.160
40.4130 0.709 0.159
40.4333 0.654 0.158
40.4536 0.642 0.158
40.4739 0.508 0.155
40.4942 0.607 0.157
40.5145 0.355 0.151
40.5348 0.533 0.155
40.5551 0.354 0.151
40.5754 0.439 0.153
40.5957 0.403 0.152
40.6160 0.314 0.150
40.6363 0.333 0.150
40.6566 0.210 0.147
40.6769 0.430 0.153
40.6972 0.390 0.152
40.7175 0.403 0.152
40.7378 0.172 0.146
40.7581 0.344 0.150
40.7784 0.030 0.143
40.7987 0.150 0.146
40.8190 0.304 0.149
40.8393 0.091 0.144
40.8596 0.197 0.147
40.8799 0.105 0.145
40.9002 0.236 0.148
40.9205 0.120 0.145
40.9408 -0.107 0.139
40.9611 0.013 0.142
40.9814 -0.072 0.140
41.0017 0.024 0.142
41.0220 -0.098 0.139
41.0423 -0.061 0.140
41.0626 0.115 0.144
41.0829 0.117 0.145
41.1032 0.074 0.143
41.1235 0.122 0.145
41.1438 0.142 0.145
41.1641 0.234 0.147
41.1844 0.230 0.147
41.2047 0.090 0.144
41.2250 0.169 0.146
41.2453 0.283 0.149
41.2656 0.091 0.144
41.2859 0.149 0.146
41.3062 0.183 0.146
41.3265 0.217 0.147
41.3468 0.088 0.144
41.3671 0.237 0.148
41.3874 0.313 0.149
41.4077 0.374 0.151
41.4280 -0.012 0.142
41.4483 0.328 0.150
41.4686 0.352 0.150
41.4889 0.289 0.149
41.5092 0.608 0.156
41.5295 0.448 0.153
41.5498 0.541 0.155
41.5701 0.627 0.157
41.5904 0.683 0.158
41.6107 0.578 0.156
41.6310 0.599 0.156
41.6513 0.536 0.155
41.6716 0.456 0.153
41.6919 0.171 0.146
41.7122 0.202 0.147
41.7325 0.282 0.149
41.7528 0.316 0.150
41.7731 0.177 0.146
41.7934 -0.114 0.139
41.8137 -0.073 0.140
41.8340 0.191 0.147
41.8543 0.122 0.145
41.8746 0.153 0.146
41.8949 0.330 0.150
41.9152 0.243 0.148
41.9355 0.320 0.150
41.9558 0.556 0.155
41.9761 0.379 0.151
41.9964 0.515 0.154
42.0167 0.366 0.151
42.0370 0.411 0.152
42.0573 0.349 0.150
42.0776 0.287 0.149
42.0979 0.006 0.142
42.1182 0.388 0.151
42.1385 0.344 0.150
42.1588 0.323 0.150
42.1791 0.299 0.149
42.1994 0.442 0.152
42.2197 0.901 0.163
42.2400 0.860 0.162
42.2603 1.270 0.170
42.2806 1.316 0.171
42.3009 1.202 0.169
42.3212 1.269 0.170
42.3415 1.343 0.172
42.3618 0.979 0.164
42.3821 1.021 0.165
42.4024 1.001 0.165
42.4227 0.870 0.162
42.4430 0.694 0.158
42.4633 0.754 0.159
42.4836 0.491 0.153
42.5039 0.572 0.155
42.5242 0.211 0.147
42.5445 0.633 0.156
42.5648 0.391 0.151
42.5851 0.458 0.152
42.6054 0.646 0.157
42.6257 0.436 0.152
42.6460 0.253 0.148
42.6663 0.493 0.153
42.6866 0.561 0.155
42.7069 0.392 0.151
42.7272 0.400 0.151
42.7475 0.318 0.149
42.7678 0.343 0.150
42.7881 0.202 0.146
42.8084 0.489 0.153
42.8287 0.268 0.148
42.8490 0.488 0.153
42.8693 0.344 0.149
42.8896 0.470 0.152
42.9099 0.381 0.150
42.9302 0.345 0.149
42.9505 0.801 0.160
42.9708 0.598 0.155
42.9911 0.402 0.151
43.0114 0.400 0.150
43.0317 0.343 0.149
43.0520 0.476 0.152
43.0723 0.245 0.147
43.0926 0.122 0.144
43.1129 0.096 0.143
43.1332 0.265 0.147
43.1535 0.089 0.143
43.1738 0.150 0.144
43.1941 0.243 0.146
43.2144 -0.026 0.140
43.2347 0.129 0.144
43.2550 0.245 0.146
43.2753 0.119 0.143
43.2956 0.246 0.146
43.3159 0.300 0.147
43.3362 0.156 0.144
43.3565 -0.008 0.140
43.3768 0.074 0.142
43.3971 0.135 0.143
43.4174 0.054 0.141
43.4377 -0.010 0.140
43.4580 0.055 0.141
43.4783 -0.040 0.139
43.4986 -0.069 0.138
43.5189 0.128 0.143
43.5392 -0.008 0.139
43.5595 0.359 0.148
43.5798 0.212 0.145
43.6001 0.471 0.151
43.6204 0.922 0.161
43.6407 0.914 0.160
43.6610 0.691 0.156
43.6813 0.898 0.160
43.7016 0.689 0.155
43.7219 0.661 0.155
43.7422 0.747 0.157
43.7625 0.701 0.155
43.7828 0.652 0.154
43.8031 0.561 0.152
43.8234 0.557 0.152
43.8437 0.525 0.151
43.8640 0.344 0.147
43.8843 0.173 0.143
43.9046 0.145 0.142
43.9249 0.325 0.146
43.9452 0.126 0.141
43.9655 0.174 0.142
43.9858 0.105 0.141
44.0061 0.024 0.139
44.0264 0.097 0.140
44.0467 0.003 0.138
44.0670 -0.008 0.138
44.0873 0.034 0.139
44.1076 -0.019 0.137
44.1279 0.037 0.138
44.1482 -0.095 0.135
44.1685 -0.084 0.135
44.1888 0.046 0.139
44.2091 0.179 0.142
44.2294 0.066 0.139
44.2497 0.174 0.142
44.2700 0.037 0.139
44.2903 0.267 0.144
44.3106 0.178 0.142
44.3309 0.218 0.143
44.3512 0.376 0.147
44.3715 0.367 0.147
44.3918 0.233 0.144
44.4121 0.095 0.141
44.4324 0.382 0.147
44.4527 0.012 0.139
44.4730 0.065 0.140
44.4933 0.445 0.149
44.5136 0.565 0.152
44.5339 0.355 0.147
44.5542 0.516 0.151
44.5745 0.334 0.147
44.5948 0.367 0.147
44.6151 0.501 0.151
44.6354 0.579 0.152
44.6557 0.810 0.158
44.6760 0.753 0.156
44.6963 0.904 0.160
44.7166 0.878 0.159
44.7369 0.647 0.154
44.7572 0.816 0.158
44.7775 0.901 0.160
44.7978 0.963 0.161
44.8181 0.968 0.161
44.8384 0.783 0.157
44.8587 0.792 0.158
44.8790 0.527 0.152
44.8993 0.553 0.152
44.9196 0.229 0.145
44.9399 0.269 0.146
44.9602 0.164 0.143
44.9805 0.208 0.144
45.0008 0.346 0.148
45.0211 0.247 0.145
45.0414 0.010 0.140
45.0617 0.193 0.144
45.0820 0.157 0.143
45.1023 0.212 0.145
45.1226 0.020 0.140
45.1429 0.172 0.144
45.1632 0.025 0.140
45.1835 0.257 0.146
45.2038 0.332 0.148
45.2241 0.321 0.147
45.2444 0.254 0.146
45.2647 0.556 0.153
45.2850 0.263 0.146
45.3053 0.242 0.146
45.3256 0.522 0.152
45.3459 0.511 0.152
45.3662 0.563 0.153
45.3865 0.524 0.152
45.4068 0.239 0.146
45.4271 0.276 0.146
45.4474 0.460 0.151
45.4677 0.505 0.152
45.4881 0.397 0.149
45.5084 0.427 0.150
45.5287 0.392 0.149
45.5490 0.454 0.151
45.5693 0.412 0.150
45.5896 0.416 0.150
45.6099 0.210 0.145
45.6302 0.360 0.148
45.6505 0.474 0.151
45.6708 0.404 0.150
45.6911 0.394 0.149
45.7114 0.411 0.150
45.7317 0.244 0.146
45.7520 0.303 0.147
45.7723 0.112 0.143
45.7926 0.293 0.147
45.8129 0.036 0.141
45.8332 0.248 0.146
45.8535 0.293 0.147
45.8738 0.119 0.143
45.8941 0.140 0.143
45.9144 0.029 0.141
45.9347 0.012 0.140
45.9550 -0.040 0.139
45.9753 -0.019 0.139
45.9956 0.065 0.141
46.0159 0.163 0.144
46.0362 0.180 0.144
46.0565 0.115 0.143
46.0768 0.223 0.145
46.0971 0.133 0.143
46.1174 0.279 0.146
46.1377 0.196 0.145
46.1580 0.141 0.143
46.1783 0.166 0.144
46.1986 0.448 0.150
46.2189 0.244 0.146
46.2392 0.387 0.149
46.2595 0.186 0.144
46.2798 0.277 0.146
46.3001 0.198 0.144
46.3204 0.098 0.142
46.3407 0.477 0.151
46.3610 0.211 0.145
46.3813 0.017 0.140
46.4016 0.230 0.145
46.4219 0.099 0.142
46.4422 0.238 0.145
46.4625 0.163 0.143
46.4828 0.036 0.140
46.5031 0.064 0.141
46.5234 -0.077 0.137
46.5437 0.167 0.143
46.5640 0.175 0.144
46.5843 0.131 0.142
46.6046 0.049 0.140
46.6249 0.064 0.141
46.6452 -0.060 0.138
46.6655 -0.097 0.137
46.6858 0.036 0.140
46.7061 0.005 0.139
46.7264 -0.046 0.138
46.7467 -0.167 0.135
46.7670 0.094 0.141
46.7873 -0.065 0.137
46.8076 -0.034 0.138
46.8279 0.210 0.144
46.8482 0.298 0.146
46.8685 0.378 0.148
46.8888 0.126 0.142
46.9091 0.397 0.149
46.9294 0.162 0.143
46.9497 0.458 0.150
46.9700 0.421 0.149
46.9903 0.432 0.149
47.0106 0.447 0.150
47.0309 0.361 0.148
47.0512 0.189 0.143
47.0715 0.526 0.151
47.0918 0.455 0.150
47.1121 0.355 0.147
47.1324 0.467 0.150
47.1527 0.361 0.147
47.1730 0.369 0.148
47.1933 0.287 0.146
47.2136 0.319 0.146
47.2339 0.248 0.145
47.2542 0.266 0.145
47.2745 0.462 0.150
47.2948 0.533 0.151
47.3151 0.500 0.150
47.3354 0.838 0.158
47.3557 0.516 0.151
47.3760 0.598 0.153
47.3963 0.631 0.153
47.4166 0.594 0.152
47.4369 0.457 0.149
47.4572 0.531 0.151
47.4775 0.672 0.154
47.4978 0.462 0.149
47.5181 0.765 0.156
47.5384 0.489 0.150
47.5587 0.373 0.147
47.5790 0.684 0.154
47.5993 0.526 0.150
47.6196 0.580 0.152
47.6399 0.773 0.156
47.6602 0.726 0.155
47.6805 0.839 0.157
47.7008 1.032 0.162
47.7211 0.926 0.159
47.7414 0.807 0.157
47.7617 0.871 0.158
47.7820 0.779 0.156
47.8023 0.858 0.158
47.8226 1.166 0.164
47.8429 1.230 0.165
47.8632 1.090 0.162
47.8835 1.162 0.164
47.9038 1.254 0.166
47.9241 1.038 0.161
47.9444 1.089 0.162
47.9647 0.976 0.160
47.9850 1.017 0.161
48.0053 0.853 0.157
48.0256 0.824 0.156
48.0459 0.729 0.154
48.0662 0.565 0.150
48.0865 0.852 0.157
48.1068 0.782 0.155
48.1271 0.573 0.150
48.1474 0.839 0.156
48.1677 0.599 0.151
48.1880 0.768 0.155
48.2083 0.569 0.150
48.2286 0.534 0.149
48.2489 0.665 0.152
48.2692 0.480 0.148
48.2895 0.393 0.146
48.3098 0.416 0.146
48.3301 0.516 0.148
48.3504 0.422 0.146
48.3707 0.439 0.146
48.3910 0.424 0.146
48.4113 0.254 0.142
48.4316 0.062 0.137
48.4519 0.333 0.143
48.4722 0.468 0.147
48.4925 0.224 0.141
48.5128 0.332 0.143
48.5331 0.071 0.137
48.5534 0.175 0.139
48.5737 -0.023 0.134
48.5940 0.014 0.135
48.6143 0.195 0.139
48.6346 0.045 0.136
48.6549 -0.285 0.127
48.6752 -0.045 0.133
48.6955 -0.028 0.134
48.7158 -0.062 0.133
48.7361 -0.093 0.132
48.7564 -0.067 0.133
48.7767 -0.052 0.133
48.7970 -0.144 0.131
48.8173 0.177 0.139
48.8376 0.002 0.135
48.8579 0.052 0.136
48.8782 -0.127 0.131
48.8985 -0.054 0.133
48.9188 0.046 0.136
48.9391 -0.010 0.135
48.9594 -0.024 0.135
48.9797 -0.139 0.132
49.0000 0.305 0.143
49.0203 0.496 0.148
49.0406 0.503 0.148
49.0609 0.413 0.146
49.0812 0.569 0.150
49.1015 0.631 0.152
49.1218 0.364 0.146
49.1421 0.593 0.151
49.1624 0.485 0.149
49.1827 0.596 0.152
49.2030 0.711 0.155
49.2233 0.409 0.148
49.2436 0.715 0.155
49.2639 0.579 0.152
49.2842 0.653 0.154
49.3045 0.628 0.153
49.3248 0.615 0.153
49.3451 0.917 0.160
49.3654 0.608 0.153
49.3857 0.845 0.159
49.4060 0.751 0.157
49.4263 0.502 0.151
49.4466 0.422 0.150
49.4669 0.471 0.151
49.4872 0.423 0.150
49.5075 0.271 0.147
49.5278 0.199 0.145
49.5481 0.262 0.147
49.5684 0.325 0.148
49.5887 0.256 0.147
49.6090 0.239 0.147
49.6293 0.129 0.144
49.6496 0.157 0.145
49.6699 0.158 0.145
49.6902 0.089 0.144
49.7105 0.326 0.149
49.7308 0.313 0.149
49.7511 0.227 0.147
49.7714 0.211 0.147
49.7917 0.371 0.151
49.8120 0.261 0.149
49.8323 0.092 0.145
49.8526 0.357 0.151
49.8729 0.163 0.147
49.8932 0.380 0.152
49.9135 0.412 0.153
49.9338 0.257 0.149
49.9541 0.400 0.153
49.9744 0.103 0.146
49.9947 0.000 0.144
